Frame, Time (ms), Delta (ms)
    1, 0.000, 0.000
    2, 6.778, 6.778
    3,13.926, 7.148
    4,20.661, 6.735
    5,32.685,12.024
    6,39.277, 6.592
    7,53.258,13.981
    8,66.469,13.211
    9,80.878,14.409
   10,95.808,14.930
   11,108.850,13.042
   12,123.295,14.445
   13,135.595,12.300
   14,149.840,14.245
   15,164.117,14.277
   16,178.199,14.082
   17,192.031,13.832
   18,208.869,16.838
   19,220.144,11.275
   20,233.128,12.984
   21,247.059,13.931
   22,260.752,13.693
   23,275.436,14.684
   24,288.946,13.510
   25,303.151,14.205
   26,310.531, 7.380
   27,323.423,12.892
   28,337.342,13.919
   29,345.146, 7.804
   30,359.078,13.932
   31,365.977, 6.899
   32,379.492,13.515
   33,386.248, 6.756
   34,399.583,13.335
   35,406.927, 7.344
   36,420.349,13.422
   37,428.547, 8.198
   38,441.247,12.700
   39,454.932,13.685
   40,468.907,13.975
   41,483.122,14.215
   42,496.315,13.193
   43,510.533,14.218
   44,523.680,13.147
   45,537.866,14.186
   46,551.422,13.556
   47,565.168,13.746
   48,579.126,13.958
   49,592.952,13.826
   50,607.969,15.017
   51,614.397, 6.428
   52,628.111,13.714
   53,634.970, 6.859
   54,648.899,13.929
   55,655.682, 6.783
   56,669.682,14.000
   57,683.752,14.070
   58,696.967,13.215
   59,711.182,14.215
   60,724.911,13.729
   61,739.071,14.160
   62,752.933,13.862
   63,766.719,13.786
   64,780.094,13.375
   65,794.936,14.842
   66,808.451,13.515
   67,822.908,14.457
   68,835.987,13.079
   69,849.384,13.397
   70,863.815,14.431
   71,877.530,13.715
   72,892.147,14.617
   73,898.153, 6.006
   74,912.852,14.699
   75,926.687,13.835
   76,933.758, 7.071
   77,947.431,13.673
   78,961.002,13.571
   79,974.859,13.857
   80,989.166,14.307
   81,1002.791,13.625
   82,1016.472,13.681
   83,1030.978,14.506
   84,1044.453,13.475
   85,1058.041,13.588
   86,1072.896,14.855
   87,1086.450,13.554
   88,1100.947,14.497
   89,1107.430, 6.483
   90,1121.452,14.022
   91,1135.195,13.743
   92,1142.093, 6.898
   93,1155.794,13.701
   94,1169.553,13.759
   95,1183.999,14.446
   96,1197.173,13.174
   97,1212.203,15.030
   98,1225.622,13.419
   99,1239.520,13.898
  100,1252.766,13.246
  101,1266.394,13.628
  102,1280.371,13.977
  103,1294.850,14.479
  104,1308.439,13.589
  105,1321.866,13.427
  106,1335.924,14.058
  107,1350.404,14.480
  108,1364.091,13.687
  109,1377.728,13.637
  110,1385.363, 7.635
  111,1399.264,13.901
  112,1405.754, 6.490
  113,1419.999,14.245
  114,1433.593,13.594
  115,1447.306,13.713
  116,1460.829,13.523
  117,1474.564,13.735
  118,1488.517,13.953
  119,1502.916,14.399
  120,1517.075,14.159
  121,1530.432,13.357
  122,1544.661,14.229
  123,1558.895,14.234
  124,1572.293,13.398
  125,1586.543,14.250
  126,1599.808,13.265
  127,1613.793,13.985
  128,1628.126,14.333
  129,1636.169, 8.043
  130,1649.859,13.690
  131,1658.123, 8.264
  132,1671.703,13.580
  133,1678.466, 6.763
  134,1691.514,13.048
  135,1698.820, 7.306
  136,1712.598,13.778
  137,1719.067, 6.469
  138,1733.743,14.676
  139,1739.594, 5.851
  140,1753.593,13.999
  141,1760.300, 6.707
  142,1774.326,14.026
  143,1781.327, 7.001
  144,1795.027,13.700
  145,1801.886, 6.859
  146,1815.938,14.052
  147,1823.194, 7.256
  148,1836.057,12.863
  149,1843.387, 7.330
  150,1850.382, 6.995
  151,1857.740, 7.358
  152,1870.663,12.923
  153,1877.811, 7.148
  154,1892.152,14.341
  155,1898.829, 6.677
  156,1912.278,13.449
  157,1919.329, 7.051
  158,1926.643, 7.314
  159,1940.685,14.042
  160,1947.967, 7.282
  161,1961.975,14.008
  162,1968.179, 6.204
  163,1982.899,14.720
  164,1989.379, 6.480
  165,2003.095,13.716
  166,2010.659, 7.564
  167,2017.220, 6.561
  168,2030.942,13.722
  169,2039.916, 8.974
  170,2052.394,12.478
  171,2067.259,14.865
  172,2074.530, 7.271
  173,2087.171,12.641
  174,2094.993, 7.822
  175,2107.536,12.543
  176,2116.045, 8.509
  177,2128.877,12.832
  178,2136.008, 7.131
  179,2149.567,13.559
  180,2156.320, 6.753
  181,2170.514,14.194
  182,2177.298, 6.784
  183,2191.209,13.911
  184,2197.741, 6.532
  185,2212.386,14.645
  186,2219.182, 6.796
  187,2232.651,13.469
  188,2239.145, 6.494
  189,2252.767,13.622
  190,2259.710, 6.943
  191,2266.635, 6.925
  192,2280.778,14.143
  193,2287.981, 7.203
  194,2294.599, 6.618
  195,2308.750,14.151
  196,2316.160, 7.410
  197,2329.534,13.374
  198,2336.394, 6.860
  199,2350.826,14.432
  200,2356.946, 6.120
  201,2371.239,14.293
  202,2378.370, 7.131
  203,2392.034,13.664
  204,2398.647, 6.613
  205,2412.490,13.843
  206,2419.911, 7.421
  207,2433.712,13.801
  208,2440.270, 6.558
  209,2454.170,13.900
  210,2461.626, 7.456
  211,2475.458,13.832
  212,2482.409, 6.951
  213,2495.655,13.246
  214,2502.871, 7.216
  215,2509.458, 6.587
  216,2517.137, 7.679
  217,2524.010, 6.873
  218,2530.495, 6.485
  219,2544.430,13.935
  220,2551.530, 7.100
  221,2558.358, 6.828
  222,2566.133, 7.775
  223,2579.289,13.156
  224,2585.940, 6.651
  225,2600.566,14.626
  226,2607.109, 6.543
  227,2620.746,13.637
  228,2629.076, 8.330
  229,2641.948,12.872
  230,2648.844, 6.896
  231,2662.633,13.789
  232,2675.389,12.756
  233,2700.703,25.314
  234,2707.956, 7.253
  235,2720.056,12.100
  236,2726.692, 6.636
  237,2739.145,12.453
  238,2745.853, 6.708
  239,2753.147, 7.294
  240,2759.890, 6.743
  241,2774.272,14.382
  242,2781.141, 6.869
  243,2795.778,14.637
  244,2803.834, 8.056
  245,2816.189,12.355
  246,2823.088, 6.899
  247,2836.243,13.155
  248,2843.315, 7.072
  249,2857.303,13.988
  250,2865.170, 7.867
  251,2872.008, 6.838
  252,2885.200,13.192
  253,2891.853, 6.653
  254,2906.513,14.660
  255,2913.716, 7.203
  256,2928.343,14.627
  257,2933.826, 5.483
  258,2948.253,14.427
  259,2954.410, 6.157
  260,2969.056,14.646
  261,2976.730, 7.674
  262,2991.171,14.441
  263,2998.639, 7.468
  264,3012.127,13.488
  265,3018.989, 6.862
  266,3031.227,12.238
  267,3040.096, 8.869
  268,3053.452,13.356
  269,3060.829, 7.377
  270,3075.664,14.835
  271,3085.879,10.215
  272,3096.212,10.333
  273,3105.142, 8.930
  274,3116.711,11.569
  275,3131.494,14.783
  276,3144.540,13.046
  277,3153.520, 8.980
  278,3164.875,11.355
  279,3172.340, 7.465
  280,3185.039,12.699
  281,3193.935, 8.896
  282,3206.376,12.441
  283,3213.521, 7.145
  284,3226.537,13.016
  285,3239.625,13.088
  286,3253.354,13.729
  287,3267.927,14.573
  288,3275.696, 7.769
  289,3288.009,12.313
  290,3302.916,14.907
  291,3317.047,14.131
  292,3330.434,13.387
  293,3343.325,12.891
  294,3357.316,13.991
  295,3371.866,14.550
  296,3384.803,12.937
  297,3398.798,13.995
  298,3412.404,13.606
  299,3427.404,15.000
  300,3441.129,13.725
  301,3455.218,14.089
  302,3468.651,13.433
  303,3482.284,13.633
  304,3498.397,16.113
  305,3510.928,12.531
  306,3525.058,14.130
  307,3537.602,12.544
  308,3551.291,13.689
  309,3566.300,15.009
  310,3582.267,15.967
  311,3594.140,11.873
  312,3607.391,13.251
  313,3621.834,14.443
  314,3636.230,14.396
  315,3649.829,13.599
  316,3662.714,12.885
  317,3676.694,13.980
  318,3690.343,13.649
  319,3705.266,14.923
  320,3718.132,12.866
  321,3731.415,13.283
  322,3746.401,14.986
  323,3759.978,13.577
  324,3773.561,13.583
  325,3786.945,13.384
  326,3802.259,15.314
  327,3816.005,13.746
  328,3829.914,13.909
  329,3837.439, 7.525
  330,3850.729,13.290
  331,3857.800, 7.071
  332,3870.918,13.118
  333,3877.806, 6.888
  334,3891.345,13.539
  335,3898.763, 7.418
  336,3906.126, 7.363
  337,3919.873,13.747
  338,3926.555, 6.682
  339,3940.341,13.786
  340,3947.139, 6.798
  341,3961.756,14.617
  342,3968.216, 6.460
  343,3982.161,13.945
  344,3989.285, 7.124
  345,4002.727,13.442
  346,4009.578, 6.851
  347,4024.066,14.488
  348,4031.252, 7.186
  349,4044.294,13.042
  350,4058.958,14.664
  351,4073.233,14.275
  352,4086.385,13.152
  353,4100.208,13.823
  354,4114.245,14.037
  355,4122.183, 7.938
  356,4135.238,13.055
  357,4142.525, 7.287
  358,4156.541,14.016
  359,4170.007,13.466
  360,4183.558,13.551
  361,4197.529,13.971
  362,4212.763,15.234
  363,4225.736,12.973
  364,4239.178,13.442
  365,4246.201, 7.023
  366,4259.643,13.442
  367,4267.248, 7.605
  368,4280.568,13.320
  369,4294.719,14.151
  370,4308.670,13.951
  371,4322.251,13.581
  372,4336.011,13.760
  373,4344.074, 8.063
  374,4350.260, 6.186
  375,4364.386,14.126
  376,4371.726, 7.340
  377,4385.068,13.342
  378,4398.686,13.618
  379,4412.437,13.751
  380,4426.840,14.403
  381,4440.691,13.851
  382,4455.244,14.553
  383,4461.883, 6.639
  384,4474.977,13.094
  385,4482.602, 7.625
  386,4495.643,13.041
  387,4509.958,14.315
  388,4523.416,13.458
  389,4538.717,15.301
  390,4552.141,13.424
  391,4565.472,13.331
  392,4576.533,11.061
  393,4581.877, 5.344
  394,4593.756,11.879
  395,4600.608, 6.852
  396,4613.849,13.241
  397,4627.812,13.963
  398,4642.461,14.649
  399,4655.656,13.195
  400,4669.321,13.665
  401,4683.343,14.022
  402,4698.188,14.845
  403,4704.928, 6.740
  404,4718.214,13.286
  405,4725.493, 7.279
  406,4732.454, 6.961
  407,4745.562,13.108
  408,4759.743,14.181
  409,4773.481,13.738
  410,4788.412,14.931
  411,4801.252,12.840
  412,4815.482,14.230
  413,4829.894,14.412
  414,4843.134,13.240
  415,4856.898,13.764
  416,4864.782, 7.884
  417,4878.345,13.563
  418,4885.118, 6.773
  419,4899.278,14.160
  420,4906.295, 7.017
  421,4919.769,13.474
  422,4927.868, 8.099
  423,4940.478,12.610
  424,4955.540,15.062
  425,4969.064,13.524
  426,4982.475,13.411
  427,4996.045,13.570
  428,5010.318,14.273
  429,5024.105,13.787
  430,5037.711,13.606
  431,5052.524,14.813
  432,5058.948, 6.424
  433,5072.267,13.319
  434,5079.709, 7.442
  435,5087.090, 7.381
  436,5094.662, 7.572
  437,5100.992, 6.330
  438,5114.232,13.240
  439,5121.206, 6.974
  440,5134.913,13.707
  441,5153.284,18.371
  442,5162.674, 9.390
  443,5177.003,14.329
  444,5190.529,13.526
  445,5209.058,18.529
  446,5219.987,10.929
  447,5232.557,12.570
  448,5239.903, 7.346
  449,5246.768, 6.865
  450,5261.050,14.282
  451,5270.765, 9.715
  452,5277.459, 6.694
  453,5288.452,10.993
  454,5296.182, 7.730
  455,5309.592,13.410
  456,5322.990,13.398
  457,5336.961,13.971
  458,5351.708,14.747
  459,5365.328,13.620
  460,5378.886,13.558
  461,5392.405,13.519
  462,5405.479,13.074
  463,5419.873,14.394
  464,5433.695,13.822
  465,5448.214,14.519
  466,5455.723, 7.509
  467,5468.821,13.098
  468,5476.629, 7.808
  469,5490.266,13.637
  470,5496.839, 6.573
  471,5510.508,13.669
  472,5523.833,13.325
  473,5537.639,13.806
  474,5551.815,14.176
  475,5566.022,14.207
  476,5574.255, 8.233
  477,5586.710,12.455
  478,5594.816, 8.106
  479,5613.205,18.389
  480,5620.745, 7.540
  481,5636.045,15.300
  482,5650.377,14.332
  483,5663.714,13.337
  484,5677.539,13.825
  485,5690.998,13.459
  486,5705.074,14.076
  487,5719.995,14.921
  488,5726.445, 6.450
  489,5739.776,13.331
  490,5747.366, 7.590
  491,5754.213, 6.847
  492,5767.549,13.336
  493,5773.939, 6.390
  494,5788.138,14.199
  495,5795.214, 7.076
  496,5809.185,13.971
  497,5816.044, 6.859
  498,5830.025,13.981
  499,5844.000,13.975
  500,5857.982,13.982
  501,5871.704,13.722
  502,5885.889,14.185
  503,5899.844,13.955
  504,5913.483,13.639
  505,5926.904,13.421
  506,5941.012,14.108
  507,5954.967,13.955
  508,5962.120, 7.153
  509,5975.692,13.572
  510,5982.852, 7.160
  511,6010.676,27.824
  512,6020.851,10.175
  513,6030.751, 9.900
  514,6045.026,14.275
  515,6058.912,13.886
  516,6072.571,13.659
  517,6086.355,13.784
  518,6100.149,13.794
  519,6114.264,14.115
  520,6128.598,14.334
  521,6142.414,13.816
  522,6156.327,13.913
  523,6162.752, 6.425
  524,6176.860,14.108
  525,6183.589, 6.729
  526,6191.565, 7.976
  527,6198.551, 6.986
  528,6213.141,14.590
  529,6220.414, 7.273
  530,6232.940,12.526
  531,6247.390,14.450
  532,6260.379,12.989
  533,6274.666,14.286
  534,6288.192,13.527
  535,6302.258,14.066
  536,6316.627,14.369
  537,6330.314,13.687
  538,6343.991,13.677
  539,6361.933,17.942
  540,6368.101, 6.168
  541,6378.705,10.604
  542,6385.801, 7.096
  543,6399.493,13.692
  544,6413.472,13.979
  545,6426.980,13.508
  546,6441.272,14.292
  547,6455.413,14.141
  548,6468.878,13.465
  549,6482.801,13.923
  550,6489.136, 6.335
  551,6497.120, 7.984
  552,6510.729,13.608
  553,6523.514,12.786
  554,6529.343, 5.829
  555,6539.106, 9.763
  556,6552.941,13.835
  557,6565.417,12.476
  558,6580.055,14.638
  559,6593.382,13.327
  560,6600.107, 6.725
  561,6607.446, 7.339
  562,6615.140, 7.694
  563,6622.807, 7.667
  564,6637.066,14.259
  565,6645.150, 8.084
  566,6656.707,11.556
  567,6670.708,14.001
  568,6684.974,14.267
  569,6698.718,13.744
  570,6712.078,13.360
  571,6718.949, 6.871
  572,6733.293,14.344
  573,6740.221, 6.928
  574,6753.980,13.759
  575,6760.686, 6.705
  576,6774.145,13.459
  577,6788.434,14.290
  578,6802.805,14.371
  579,6815.813,13.007
  580,6823.240, 7.428
  581,6830.364, 7.124
  582,6843.969,13.605
  583,6850.488, 6.519
  584,6859.257, 8.769
  585,6865.908, 6.651
  586,6877.833,11.925
  587,6893.703,15.870
  588,6906.695,12.992
  589,6920.889,14.194
  590,6929.734, 8.845
  591,6943.036,13.302
  592,6949.658, 6.622
  593,6961.178,11.520
  594,6975.431,14.253
  595,6989.312,13.880
  596,7004.154,14.843
  597,7016.670,12.516
  598,7030.657,13.987
  599,7039.304, 8.647
  600,7052.817,13.513
  601,7059.855, 7.038
  602,7072.323,12.468
  603,7086.917,14.594
  604,7102.611,15.694
  605,7116.237,13.626
  606,7128.903,12.666
  607,7142.539,13.635
  608,7149.252, 6.714
  609,7163.547,14.295
  610,7170.693, 7.146
  611,7184.127,13.434
  612,7197.407,13.280
  613,7213.834,16.427
  614,7226.365,12.531
  615,7240.329,13.964
  616,7253.305,12.976
  617,7267.790,14.484
  618,7281.063,13.273
  619,7288.153, 7.091
  620,7296.044, 7.891
  621,7308.872,12.827
  622,7315.598, 6.727
  623,7322.681, 7.083
  624,7335.916,13.234
  625,7350.265,14.350
  626,7364.562,14.296
  627,7377.879,13.318
  628,7391.847,13.968
  629,7409.210,17.363
  630,7415.385, 6.175
  631,7420.736, 5.351
  632,7434.026,13.290
  633,7446.875,12.849
  634,7461.326,14.451
  635,7474.833,13.507
  636,7481.832, 6.998
  637,7488.972, 7.141
  638,7495.915, 6.942
  639,7503.544, 7.630
  640,7516.879,13.335
  641,7530.925,14.046
  642,7544.609,13.684
  643,7551.740, 7.131
  644,7558.854, 7.114
  645,7565.208, 6.353
  646,7579.930,14.723
  647,7593.703,13.773
  648,7607.216,13.513
  649,7621.654,14.438
  650,7628.124, 6.469
  651,7642.705,14.581
  652,7648.670, 5.966
  653,7662.486,13.816
  654,7676.533,14.047
  655,7690.737,14.204
  656,7704.448,13.711
  657,7710.397, 5.949
  658,7718.276, 7.879
  659,7725.173, 6.897
  660,7738.519,13.345
  661,7752.360,13.842
  662,7766.273,13.913
  663,7773.122, 6.848
  664,7780.324, 7.203
  665,7787.080, 6.755
  666,7794.633, 7.554
  667,7807.723,13.090
  668,7821.576,13.853
  669,7828.682, 7.106
  670,7835.797, 7.115
  671,7843.034, 7.237
  672,7857.240,14.206
  673,7870.114,12.874
  674,7884.161,14.047
  675,7892.509, 8.348
  676,7898.818, 6.309
  677,7912.813,13.995
  678,7926.056,13.243
  679,7939.837,13.781
  680,7947.700, 7.863
  681,7954.195, 6.495
  682,7961.696, 7.501
  683,7974.991,13.295
  684,7988.691,13.700
  685,7995.848, 7.157
  686,8002.826, 6.978
  687,8010.187, 7.360
  688,8023.404,13.218
  689,8037.076,13.672
  690,8050.979,13.903
  691,8058.440, 7.461
  692,8064.874, 6.433
  693,8072.923, 8.050
  694,8079.021, 6.098
  695,8092.389,13.368
  696,8106.437,14.047
  697,8113.396, 6.960
  698,8120.375, 6.978
  699,8127.471, 7.097
  700,8134.730, 7.259
  701,8148.005,13.275
  702,8162.189,14.184
  703,8175.838,13.649
  704,8182.958, 7.120
  705,8189.863, 6.905
  706,8198.854, 8.991
  707,8211.397,12.543
  708,8224.981,13.584
  709,8238.289,13.308
  710,8252.393,14.103
  711,8259.703, 7.311
  712,8266.710, 7.007
  713,8273.339, 6.628
  714,8287.085,13.747
  715,8301.047,13.961
  716,8314.691,13.645
  717,8321.792, 7.101
  718,8329.017, 7.224
  719,8336.362, 7.346
  720,8350.287,13.925
  721,8363.369,13.082
  722,8377.509,14.139
  723,8385.366, 7.858
  724,8391.885, 6.518
  725,8398.436, 6.551
  726,8405.096, 6.660
  727,8419.733,14.638
  728,8432.837,13.104
  729,8446.949,14.112
  730,8454.448, 7.499
  731,8461.490, 7.042
  732,8468.009, 6.518
  733,8481.351,13.342
  734,8495.041,13.691
  735,8502.535, 7.494
  736,8516.460,13.925
  737,8530.253,13.793
  738,8543.759,13.505
  739,8551.467, 7.708
  740,8557.883, 6.416
  741,8565.230, 7.348
  742,8578.290,13.060
  743,8585.674, 7.383
  744,8592.786, 7.113
  745,8600.030, 7.244
  746,8613.165,13.135
  747,8627.283,14.118
  748,8634.567, 7.284
  749,8641.110, 6.543
  750,8648.371, 7.261
  751,8661.867,13.496
  752,8668.868, 7.001
  753,8675.877, 7.009
  754,8683.123, 7.246
  755,8696.411,13.288
  756,8703.623, 7.212
  757,8710.869, 7.246
  758,8717.720, 6.850
  759,8731.840,14.120
  760,8745.606,13.767
  761,8752.343, 6.736
  762,8759.452, 7.110
  763,8766.477, 7.024
  764,8779.881,13.404
  765,8787.471, 7.590
  766,8794.021, 6.550
  767,8801.198, 7.178
  768,8814.681,13.482
  769,8828.277,13.597
  770,8836.169, 7.892
  771,8842.749, 6.580
  772,8849.788, 7.039
  773,8862.970,13.181
  774,8870.216, 7.246
  775,8877.454, 7.239
  776,8884.623, 7.169
  777,8897.945,13.322
  778,8912.054,14.108
  779,8919.563, 7.509
  780,8926.100, 6.537
  781,8933.234, 7.135
  782,8946.285,13.051
  783,8954.057, 7.771
  784,8960.735, 6.679
  785,8967.626, 6.891
  786,8981.172,13.545
  787,8995.162,13.991
  788,9002.581, 7.419
  789,9009.528, 6.947
  790,9016.476, 6.947
  791,9029.918,13.443
  792,9037.079, 7.161
  793,9044.205, 7.126
  794,9051.153, 6.948
  795,9064.451,13.298
  796,9072.740, 8.289
  797,9080.021, 7.281
  798,9087.246, 7.225
  799,9100.435,13.188
  800,9107.557, 7.122
  801,9120.619,13.063
  802,9128.205, 7.586
  803,9142.950,14.745
  804,9155.015,12.064
  805,9162.179, 7.164
  806,9168.947, 6.769
  807,9175.937, 6.989
  808,9189.591,13.654
  809,9200.955,11.365
  810,9208.138, 7.182
  811,9218.007, 9.869
  812,9231.221,13.214
  813,9238.886, 7.665
  814,9245.479, 6.593
  815,9259.328,13.850
  816,9266.384, 7.055
  817,9273.783, 7.400
  818,9280.831, 7.048
  819,9293.757,12.925
  820,9301.682, 7.925
  821,9308.347, 6.665
  822,9321.677,13.330
  823,9328.997, 7.321
  824,9335.729, 6.732
  825,9342.945, 7.216
  826,9349.349, 6.403
  827,9356.665, 7.317
  828,9364.115, 7.450
  829,9377.387,13.271
  830,9384.969, 7.582
  831,9391.573, 6.605
  832,9398.611, 7.038
  833,9405.036, 6.425
  834,9412.251, 7.215
  835,9419.251, 7.000
  836,9426.141, 6.889
  837,9433.132, 6.991
  838,9440.023, 6.892
  839,9447.590, 7.566
  840,9453.766, 6.176
  841,9460.883, 7.117
  842,9467.579, 6.697
  843,9474.837, 7.257
  844,9481.254, 6.417
  845,9488.729, 7.476
  846,9502.514,13.784
  847,9509.302, 6.788
  848,9516.075, 6.774
  849,9523.346, 7.270
  850,9530.208, 6.863
  851,9537.030, 6.822
  852,9544.047, 7.016
  853,9550.862, 6.816
  854,9557.993, 7.131
  855,9564.845, 6.851
  856,9571.555, 6.710
  857,9578.663, 7.109
  858,9585.606, 6.943
  859,9593.075, 7.469
  860,9599.615, 6.540
  861,9613.572,13.957
  862,9621.379, 7.806
  863,9627.865, 6.487
  864,9641.859,13.994
  865,9647.957, 6.098
  866,9655.368, 7.411
  867,9662.433, 7.064
  868,9669.333, 6.901
  869,9675.789, 6.456
  870,9683.313, 7.524
  871,9690.228, 6.914
  872,9697.126, 6.899
  873,9704.103, 6.976
  874,9710.530, 6.428
  875,9725.024,14.494
  876,9732.386, 7.361
  877,9738.876, 6.491
  878,9745.813, 6.936
  879,9759.457,13.645
  880,9766.782, 7.325
  881,9773.028, 6.246
  882,9780.573, 7.545
  883,9786.874, 6.301
  884,9794.696, 7.822
  885,9801.155, 6.459
  886,9808.250, 7.095
  887,9821.910,13.660
  888,9829.249, 7.339
  889,9835.574, 6.325
  890,9843.397, 7.823
  891,9849.768, 6.370
  892,9856.650, 6.883
  893,9863.573, 6.923
  894,9877.518,13.944
  895,9884.916, 7.399
  896,9898.530,13.614
  897,9905.646, 7.116
  898,9912.321, 6.675
  899,9919.660, 7.339
  900,9925.865, 6.205
  901,9933.165, 7.300
  902,9939.631, 6.465
  903,9946.994, 7.364
  904,9953.934, 6.939
  905,9961.238, 7.305
  906,9967.413, 6.175
  907,9981.878,14.464
  908,9988.297, 6.419
  909,9995.301, 7.004
  910,10002.929, 7.628
  911,10016.456,13.528
